CH3COCH3	quantum	yields																	
from	McKeen	et	al.	1997										McKeen et al. 1997			IUPAC97		
1/phi	=	a	+	b*M	where	M	=	air	number	"density,"	molec/cm3			292	4.71E-01		acetone	quantum	yields
nm	a	b									2.46E+19			293	4.22E-01				
292	1	4.00E-20												294	3.78E-01				
301.5	1.5	1.90E-19												295	3.38E-01			250	0.76
308	1.9	5.00E-19												296	3.01E-01			260	0.8
321	8.4	8.50E-19												297	2.69E-01			270	0.64
337	11.9	2.60E-18												298	2.39E-01			280	0.55
														299	2.12E-01			290	0.3
292	9.85E-01	1.99E+00	5.04E-01											300	1.88E-01			300	0.15
301.5	4.68E+00	6.18E+00	1.62E-01											301	1.66E-01			310	0.05
308	1.23E+01	1.42E+01	7.03E-02											302	1.47E-01			320	0.028
321	2.09E+01	2.93E+01	3.41E-02											303	1.29E-01			330	0.033
337	6.40E+01	7.59E+01	1.32E-02											304	1.14E-01				
														305	9.99E-02				
														306	8.75E-02
														307	7.65E-02
														308	6.68E-02
														309	6.25E-02
														310	5.86E-02
														311	5.51E-02
														312	5.19E-02
														313	4.90E-02
														314	4.63E-02
														315	4.39E-02
														316	4.16E-02
														317	3.95E-02
														318	3.75E-02
														319	3.57E-02
														320	3.39E-02
														321	3.23E-02
														322	3.08E-02
														323	2.94E-02
														324	2.81E-02
														325	2.68E-02
														326	2.57E-02
														327	2.45E-02
														328	2.35E-02
														329	2.25E-02
														330	2.15E-02
														331	2.06E-02
														332	1.98E-02
														333	1.89E-02
														334	1.82E-02
														335	1.74E-02
														336	1.67E-02
														337	1.60E-02
