Ketone cross sections from Martinez et al. 1992				
Near U.V. absorption spectra of several aliphatic aldehydes and ketones at 300 K
Martinez, Richard D; Buttrago, Alvaro A; Howell, Noel W; Hearn, Christine H; Joens, Jeffrey A, Atmospheric Environment. Vol. 26A, no. 5, pp. 785-792. 1992 
nm	acetone	2-butanone	2-pentanone	3-pentanone
202	0.533	1.412	2.88	12.6
206	0.125	0.192	0.76	0.41
210	0.104	0.16	0.722	0.282
214	0.12	0.183	0.709	0.288
218	0.163	0.225	0.695	0.29
222	0.242	0.29	0.684	0.306
226	0.361	0.391	0.676	0.362
230	0.533	0.534	0.693	0.463
234	0.774	0.742	0.777	0.622
238	1.086	1.029	0.965	0.858
242	1.479	1.41	1.277	1.191
246	1.944	1.886	1.715	1.635
250	2.47	2.45	2.28	2.19
254	3.04	3.09	2.92	2.84
258	3.61	3.74	3.59	3.56
262	4.15	4.37	4.3	4.29
266	4.58	4.96	4.93	4.98
270	4.91	5.5	5.48	5.55
274	5.06	5.68	5.88	5.97
278	5.07	5.77	6.09	6.18
280	5.05	5.74	6.12	6.2
281	5.01	5.72	6.13	6.19
282	4.94	5.68	6.12	6.17
283	4.86	5.62	6.09	6.14
284	4.76	5.54	6.4	6.11
285	4.68	5.44	5.96	6.05
286	4.58	5.35	5.88	5.96
287	4.5	5.26	5.8	5.84
288	4.41	5.17	5.72	5.7
289	4.29	5.06	5.63	5.56
290	4.19	4.94	5.53	5.43
291	4.08	4.78	5.41	5.31
292	3.94	4.6	5.26	5.18
293	3.81	4.42	5.08	5.04
294	3.67	4.24	4.9	4.87
295	3.52	4.08	4.72	4.67
296	3.35	3.93	4.55	4.44
297	3.2	3.79	4.4	4.21
298	3.07	3.65	4.25	3.99
299	2.91	3.48	4.1	3.8
300	2.77	3.3	3.92	3.63
301	2.66	3.1	3.72	3.46
302	2.53	2.89	3.51	3.28
303	2.37	2.69	3.29	3.08
304	2.24	2.5	3.08	2.87
305	2.11	2.33	2.88	2.63
306	1.952	2.17	2.69	2.4
307	1.801	2.02	2.52	2.18
308	1.663	1.876	2.35	1.984
309	1.537	1.727	2.18	1.809
310	1.408	1.575	2.02	1.652
311	1.276	1.423	1.848	1.512
312	1.173	1.276	1.671	1.372
313	1.081	1.136	1.502	1.238
314	0.967	1.009	1.345	1.102
315	0.858	0.896	1.2	0.967
316	0.777	0.794	1.071	0.836
317	0.699	0.697	0.953	0.716
318	0.608	0.611	0.845	0.613
319	0.53	0.531	0.745	0.522
320	0.467	0.457	0.652	0.444
321	0.407	0.389	0.56	0.374
322	0.344	0.328	0.479	0.317
323	0.287	0.276	0.406	0.264
324	0.243	0.229	0.343	0.219
325	0.205	0.189	0.285	0.181
326	0.168	0.156	0.237	0.15
327	0.135	0.129	0.194	0.125
328	0.108	0.105	0.16	0.101
329	0.086	0.085	0.13	0.083
330	0.067	0.067	0.103	0.068
331	0.051	0.054	0.083	0.054
332	0.04	0.042	0.067	0.044
333	0.031	0.033	0.051	0.034
334	0.026	0.025	0.037	0.025
335	0.017	0.02	0.029	0.02
336	0.014	0.014	0.022	0.016
337	0.011	0.011	0.018	0.013
338	0.009	0.008	0.013	0.011
339	0.006	0.007	0.009	0.008
340	0.005	0.005	0.008	0.002
341	0.005	0.005	0.005	0.001
342	0.003	0.003	0.002	0
343	0.004	0.003	0.004	0
344	0.002	0.002	0.001	0
345	0.002	0.001	0.001	0
346	0.001	0.001	0.001	0
347	0.002	0	0.001	0
348	0.001	0.001	0	0.001
349	0.001	0	0.001	0
350	0.001	0	0	0
351	0	0	0.001	0
352	0.001	0.001	0	0
353	0	0	0	0
354	0.001	0	0	0
355	0	0	0	0
